"Time (s)","Acceleration x (m/s^2)","Acceleration y (m/s^2)","Acceleration z (m/s^2)","Absolute acceleration (m/s^2)"
2.701099500E-2,1.221386433E0,1.801346779E0,9.517900467E0,9.763557975E0
2.962271300E-2,1.202393413E0,1.800000787E0,9.519994736E0,9.762994035E0
3.223464000E-2,1.171735287E0,1.791775465E0,9.512816429E0,9.750748654E0
3.484667200E-2,1.144068360E0,1.793420553E0,9.510273933E0,9.745283987E0
3.745870300E-2,1.110269666E0,1.797159314E0,9.508179665E0,9.740018525E0
4.007078600E-2,1.068993568E0,1.803141356E0,9.501599312E0,9.730079932E0
4.268287000E-2,1.025773168E0,1.808375716E0,9.491280556E0,9.716318228E0
4.529495300E-2,9.833005667E-1,1.808375716E0,9.479914665E0,9.700818769E0
4.790703600E-2,9.438189864E-1,1.810918093E0,9.467801094E0,9.685529215E0
5.051912000E-2,8.952147961E-1,1.806132436E0,9.447761536E0,9.660420381E0
5.313120300E-2,8.540881276E-1,1.810768485E0,9.436694145E0,9.646737554E0
5.574328600E-2,8.183453679E-1,1.817199230E0,9.424580574E0,9.632996480E0
5.835537000E-2,7.872386575E-1,1.823031783E0,9.418897629E0,9.625945259E0
6.096745300E-2,7.624131441E-1,1.823480368E0,9.414112091E0,9.619348258E0
6.357953600E-2,7.408776879E-1,1.826321840E0,9.412467003E0,9.616594319E0
6.619162000E-2,7.293622494E-1,1.828864217E0,9.415906906E0,9.619564256E0
6.880370300E-2,7.147062421E-1,1.824377656E0,9.412018776E0,9.613805505E0
7.141578600E-2,7.105187774E-1,1.829013824E0,9.414859772E0,9.617157222E0
7.402787000E-2,7.118647099E-1,1.828415632E0,9.422337532E0,9.624463604E0
7.663995300E-2,7.179963589E-1,1.823181272E0,9.426525116E0,9.628025991E0
7.925203600E-2,7.209873796E-1,1.814058661E0,9.432806015E0,9.632676728E0
8.186412000E-2,7.262216806E-1,1.803739667E0,9.443124771E0,9.641238518E0
8.447620300E-2,7.332506180E-1,1.799701691E0,9.454640388E0,9.652295453E0
8.708828600E-2,7.301099896E-1,1.791476369E0,9.462716103E0,9.658439015E0
8.970037000E-2,7.311568856E-1,1.788335800E0,9.480812073E0,9.675667051E0
9.231245300E-2,7.299604416E-1,1.785643935E0,9.508628845E0,9.702339358E0
9.492453600E-2,7.265207767E-1,1.785793424E0,9.538089752E0,9.730983851E0
9.753662000E-2,7.236793041E-1,1.790878177E0,9.566205978E0,9.759264993E0
1.001487030E-1,7.214360237E-1,1.797757506E0,9.593423843E0,9.787041587E0
1.027607860E-1,7.170990109E-1,1.806431532E0,9.617352486E0,9.811773270E0
1.053728700E-1,7.039384842E-1,1.809422612E0,9.631410599E0,9.825151892E0
1.079849530E-1,6.892824769E-1,1.820788503E0,9.652347565E0,9.846735226E0
1.105970360E-1,6.740282178E-1,1.833201289E0,9.668349266E0,9.863666587E0
1.132007340E-1,6.536892653E-1,1.844118476E0,9.668199539E0,9.864185974E0
1.157789630E-1,6.312565207E-1,1.856232166E0,9.660871506E0,9.857815219E0
1.183401610E-1,6.092724800E-1,1.864607096E0,9.652347565E0,9.849659186E0
1.209014630E-1,5.926722288E-1,1.874477386E0,9.640084267E0,9.838503469E0
1.234626090E-1,5.784648657E-1,1.876122475E0,9.615407944E0,9.813792695E0
1.260238070E-1,5.817549825E-1,1.881506324E0,9.590433121E0,9.790552198E0
1.285849530E-1,5.991029739E-1,1.879113555E0,9.561570168E0,9.762869260E0
1.311460990E-1,6.192924380E-1,1.872383714E0,9.529266357E0,9.731200399E0
1.337071930E-1,6.442674994E-1,1.859522343E0,9.493823051E0,9.695647482E0
1.362679740E-1,6.758228540E-1,1.845913172E0,9.463015556E0,9.665029508E0
1.388287550E-1,7.082754970E-1,1.829312921E0,9.436245918E0,9.637986147E0
1.413893800E-1,7.322037220E-1,1.807927012E0,9.401101112E0,9.601324101E0
1.439501610E-1,7.618148923E-1,1.797907114E0,9.374181747E0,9.575391133E0
1.465110470E-1,7.902296782E-1,1.791625977E0,9.355637550E0,9.558364952E0
1.490719840E-1,8.175975680E-1,1.786242127E0,9.341878891E0,9.546194422E0
1.516330260E-1,8.464609981E-1,1.781755567E0,9.334700584E0,9.540848187E0
1.541943800E-1,8.790631890E-1,1.773081541E0,9.330961227E0,9.538522300E0
1.567556300E-1,9.101698995E-1,1.765604019E0,9.332606316E0,9.541661671E0
1.593166720E-1,9.351450205E-1,1.754537225E0,9.332008362E0,9.541450474E0
1.618774010E-1,9.681958556E-1,1.748854280E0,9.342476845E0,9.553939926E0
1.644376610E-1,9.994521141E-1,1.734347820E0,9.354142189E0,9.565920917E0
1.669977650E-1,1.029511929E0,1.721785426E0,9.369246483E0,9.581608399E0
1.695581300E-1,1.055832982E0,1.708475351E0,9.385099411E0,9.597591483E0
1.721188070E-1,1.079013467E0,1.696959853E0,9.399007797E0,9.611726712E0
1.746793280E-1,1.101745248E0,1.684696674E0,9.408877373E0,9.621799150E0
1.772397450E-1,1.114905834E0,1.664656758E0,9.410672188E0,9.621582415E0
1.798000050E-1,1.132552862E0,1.648505211E0,9.420842171E0,9.630810590E0
1.823601090E-1,1.145713449E0,1.632204175E0,9.432356834E0,9.640856042E0
1.849203700E-1,1.162164092E0,1.615603924E0,9.444919586E0,9.652321348E0
1.874806820E-1,1.174277663E0,1.598854184E0,9.458378792E0,9.664170534E0
1.900408380E-1,1.182652593E0,1.579562068E0,9.475129128E0,9.678416992E0
1.926009950E-1,1.187737346E0,1.562812328E0,9.497113228E0,9.697848320E0
1.951609950E-1,1.185344458E0,1.538734555E0,9.514162064E0,9.710408091E0
1.977206300E-1,1.189382434E0,1.519292831E0,9.540184021E0,9.733344360E0
2.002804740E-1,1.195513964E0,1.497607827E0,9.570243835E0,9.760207473E0
2.028405260E-1,1.203290701E0,1.478614807E0,9.601499557E0,9.788922515E0
2.054005780E-1,1.210319638E0,1.462313771E0,9.638439178E0,9.823581067E0
2.079606300E-1,1.218993545E0,1.452891946E0,9.671041489E0,9.855246508E0
2.105205780E-1,1.229013562E0,1.439880967E0,9.709177017E0,9.892009396E0
2.130804740E-1,1.230957747E0,1.421785355E0,9.747612000E0,9.927369755E0
2.156402130E-1,1.243819118E0,1.409671664E0,9.799506187E0,9.978205335E0
2.182001610E-1,1.257428288E0,1.401595831E0,9.857083321E0,1.003532204E1
2.207602650E-1,1.271934748E0,1.397109270E0,9.917053223E0,1.009542852E1
2.233200570E-1,1.282253861E0,1.398156166E0,9.981659889E0,1.016034201E1
2.258797970E-1,1.291526079E0,1.401446342E0,1.004791069E1,1.022705240E1
2.284395880E-1,1.297358513E0,1.416550994E0,1.011790085E1,1.029862483E1
2.309992760E-1,1.290778279E0,1.427617788E0,1.018190861E1,1.036221328E1
2.335588590E-1,1.288834095E0,1.448405504E0,1.025623608E1,1.043788055E1
2.361184950E-1,1.280160069E0,1.471436381E0,1.033086205E1,1.051335557E1
2.386782340E-1,1.265354514E0,1.496411443E0,1.040339470E1,1.058635870E1
2.412379740E-1,1.247856975E0,1.518545032E0,1.046949673E1,1.065239352E1
2.437976610E-1,1.230359435E0,1.535593987E0,1.052976513E1,1.071203934E1
2.463571400E-1,1.210319638E0,1.555484295E0,1.057792091E1,1.075996356E1
2.489167240E-1,1.181007504E0,1.565952897E0,1.061082268E1,1.079057668E1
2.514763590E-1,1.159322619E0,1.583749533E0,1.064342499E1,1.082288256E1
2.540359430E-1,1.135693431E0,1.594666719E0,1.066481018E1,1.084301331E1
2.565951090E-1,1.115055323E0,1.606630802E0,1.067647552E1,1.085411169E1
2.591541200E-1,1.094865918E0,1.617398500E0,1.067976570E1,1.085689204E1
2.617135470E-1,1.077218890E0,1.622034669E0,1.067782116E1,1.085390537E1
2.642725570E-1,1.066750288E0,1.623978853E0,1.066914749E1,1.084462870E1
2.668311510E-1,1.050598741E0,1.613809347E0,1.064985561E1,1.082254882E1
2.693897970E-1,1.047607660E0,1.604088426E0,1.063205910E1,1.080329867E1
2.719485470E-1,1.047458172E0,1.590927958E0,1.060947609E1,1.077910958E1
2.745076610E-1,1.049850941E0,1.574776411E0,1.058734322E1,1.075518220E1
2.770669840E-1,1.052094221E0,1.560718536E0,1.056341457E1,1.072979366E1
2.796262030E-1,1.054187894E0,1.543819308E0,1.054502010E1,1.070944159E1
2.821851610E-1,1.060917735E0,1.526620865E0,1.052662468E1,1.068952501E1
2.847438590E-1,1.062413216E0,1.507179141E0,1.050598717E1,1.066658695E1
2.873024530E-1,1.074676514E0,1.494018674E0,1.049177933E1,1.065196953E1
2.898610990E-1,1.085593700E0,1.485045552E0,1.047951603E1,1.063974296E1
2.924197970E-1,1.099950671E0,1.482054472E0,1.046650505E1,1.062798687E1
2.949785470E-1,1.112662554E0,1.479661703E0,1.045050335E1,1.061321992E1
2.975373490E-1,1.124028444E0,1.484746456E0,1.043659496E1,1.060143511E1
3.000961510E-1,1.133898854E0,1.484596848E0,1.042208862E1,1.058818614E1
3.026549010E-1,1.133450150E0,1.482353687E0,1.040025425E1,1.056633192E1
3.052137550E-1,1.144068360E0,1.486690640E0,1.037767220E1,1.054586278E1
3.077722970E-1,1.153340459E0,1.492971778E0,1.035090256E1,1.052142304E1
3.103304220E-1,1.156929731E0,1.501047611E0,1.032054329E1,1.049310460E1
3.128884950E-1,1.155434251E0,1.510469317E0,1.028674412E1,1.046105398E1
3.154469840E-1,1.149302602E0,1.526172161E0,1.024546814E1,1.042207826E1
3.180057340E-1,1.129860997E0,1.544866085E0,1.020464039E1,1.038257591E1
3.205646400E-1,1.096211910E0,1.556531072E0,1.015484047E1,1.033175951E1
3.231233900E-1,1.063609719E0,1.580309749E0,1.010788059E1,1.028581035E1
3.256816720E-1,1.025623560E0,1.606032610E0,1.006226826E1,1.024111746E1
3.282400050E-1,9.804590940E-1,1.628614902E0,1.001276588E1,1.019162240E1
3.307987030E-1,9.315557480E-1,1.653440475E0,9.964909554E0,1.014401715E1
3.333577130E-1,8.792127967E-1,1.679911017E0,9.918250084E0,1.009786120E1
3.359167760E-1,8.240283132E-1,1.708026767E0,9.875329018E0,1.005576955E1
3.384754220E-1,7.616653442E-1,1.728216171E0,9.828369141E0,1.000818191E1
3.410339110E-1,7.037889361E-1,1.756780505E0,9.788738251E0,9.970004672E0
3.435927130E-1,6.460621357E-1,1.789233088E0,9.754192352E0,9.937958531E0
3.461516720E-1,5.910272002E-1,1.820040703E0,9.724132538E0,9.910631409E0
3.487105780E-1,5.356931686E-1,1.854287982E0,9.697960854E0,9.888164431E0
3.512695360E-1,4.849952459E-1,1.886890173E0,9.675079346E0,9.869282409E0
3.538286510E-1,4.359423816E-1,1.917847395E0,9.652945518E0,9.851271064E0
3.563878700E-1,3.815056682E-1,1.940429568E0,9.631410599E0,9.832338664E0
3.589470880E-1,3.327519000E-1,1.966601133E0,9.621240616E0,9.825808610E0
3.615060990E-1,2.878864706E-1,1.991875291E0,9.619595528E0,9.827871789E0
3.640650050E-1,2.440679073E-1,2.016551256E0,9.623035431E0,9.835083071E0
3.666240680E-1,2.033899277E-1,2.038236141E0,9.633503914E0,9.848866518E0
3.691829220E-1,1.727318913E-1,2.062164545E0,9.652197838E0,9.871538989E0
3.717416200E-1,1.459621787E-1,2.078465462E0,9.678369522E0,9.900109102E0
3.743005780E-1,1.157527938E-1,2.092972040E0,9.703942299E0,9.927760413E0
3.768597970E-1,9.780662507E-2,2.114357948E0,9.734899521E0,9.962346328E0
3.794187550E-1,8.001000434E-2,2.137837410E0,9.769446373E0,1.000094160E1
3.819773490E-1,6.445665658E-2,2.165803671E0,9.799655914E0,1.003633978E1
3.845357860E-1,5.338985473E-2,2.188086748E0,9.828668594E0,1.006942404E1
3.870941720E-1,4.621138796E-2,2.205285072E0,9.854242325E0,1.009809435E1
3.896526090E-1,4.247260094E-2,2.222782612E0,9.874281883E0,1.012146280E1
3.922113070E-1,3.005983494E-2,2.228764772E0,9.877721786E0,1.012608926E1
3.947700570E-1,2.527418919E-2,2.245215416E0,9.884600639E0,1.013641755E1
3.973285990E-1,2.123630047E-2,2.259572268E0,9.888339996E0,1.014324335E1
3.998868800E-1,1.316052489E-2,2.274677038E0,9.886993408E0,1.014529287E1
4.024452650E-1,1.345962752E-3,2.288136721E0,9.881160736E0,1.014262831E1
4.050038070E-1,-1.615155302E-2,2.297558308E0,9.873832703E0,1.013763322E1
4.075625050E-1,-3.843471408E-2,2.305933237E0,9.865009308E0,1.013100261E1
4.101212550E-1,-7.432705164E-2,2.308774710E0,9.845717430E0,1.011306664E1
4.126797970E-1,-1.067797095E-1,2.317598343E0,9.827920914E0,1.009805394E1
4.152382340E-1,-1.444666684E-1,2.320589304E0,9.809974670E0,1.008174630E1
4.177968800E-1,-1.870888174E-1,2.316102743E0,9.792178154E0,1.006409892E1
4.203557860E-1,-2.385345101E-1,2.309971094E0,9.783802986E0,1.005562858E1
4.229148490E-1,-3.001496792E-1,2.309372902E0,9.779017448E0,1.005248603E1
4.254737550E-1,-3.683451414E-1,2.314008951E0,9.774829865E0,1.005174684E1
4.280323490E-1,-4.468596280E-1,2.313410759E0,9.771689415E0,1.005173950E1
4.305910470E-1,-5.283651352E-1,2.324028969E0,9.784550667E0,1.007063613E1
4.331499530E-1,-1.127169013E0,2.338086843E0,9.805637360E0,1.014335665E1
4.357089110E-1,-1.166501045E0,2.357827663E0,9.824181557E0,1.017028118E1
4.382679740E-1,-1.222433209E0,2.387139797E0,9.843025208E0,1.020185888E1
4.408270360E-1,-1.280758262E0,2.417648077E0,9.869047165E0,1.024126242E1
4.433860470E-1,-1.338933825E0,2.451745987E0,9.896863937E0,1.028356543E1
4.459452130E-1,-1.394267797E0,2.477169752E0,9.918997765E0,1.031827841E1
4.485044320E-1,-1.429262877E0,2.505434752E0,9.951898575E0,1.036148063E1
4.510638590E-1,-1.452592850E0,2.523380995E0,9.980762482E0,1.039678303E1
4.536233900E-1,-1.458425403E0,2.534148693E0,1.001097202E1,1.042921258E1
4.561826610E-1,-1.449153185E0,2.539083958E0,1.004222775E1,1.045912665E1
4.587420360E-1,-1.421635747E0,2.533849716E0,1.007468033E1,1.048525757E1
4.613013590E-1,-1.387986660E0,2.522334099E0,1.010533905E1,1.050745229E1
4.638605780E-1,-1.341476202E0,2.490928411E0,1.013270664E1,1.052026742E1
4.664199010E-1,-1.282403350E0,2.460120678E0,1.016515923E1,1.053694520E1
4.689793280E-1,-1.223480105E0,2.430958271E0,1.019850922E1,1.055538024E1
4.715387030E-1,-1.169492126E0,2.405534506E0,1.023260689E1,1.057641488E1
4.740982340E-1,-1.122084260E0,2.383400917E0,1.026969528E1,1.060218441E1
4.766579220E-1,-1.082901835E0,2.366501570E0,1.030469036E1,1.062824772E1
4.792172970E-1,-1.053141117E0,2.354387999E0,1.034028435E1,1.065709761E1
4.817764110E-1,-1.036540866E0,2.343919277E0,1.036211872E1,1.067435614E1
4.843354220E-1,-1.022782087E0,2.343470573E0,1.038036346E1,1.069064466E1
4.868942760E-1,-1.017996430E0,2.338535547E0,1.039157963E1,1.069999964E1
4.894532340E-1,-1.013509989E0,2.329412937E0,1.039905739E1,1.070484758E1
4.920122450E-1,-1.014257669E0,2.314457655E0,1.040354443E1,1.070603426E1
4.945711510E-1,-1.022034407E0,2.294268370E0,1.040264702E1,1.070155534E1
4.971300570E-1,-1.033549786E0,2.269442797E0,1.039965630E1,1.069445870E1
4.996891720E-1,-1.055234790E0,2.236242294E0,1.038769150E1,1.067794150E1
5.022480780E-1,-1.077517986E0,2.213361025E0,1.038589668E1,1.067365270E1
5.048069320E-1,-1.106530905E0,2.188684940E0,1.038694382E1,1.067255144E1
5.073658380E-1,-1.143619657E0,2.164756775E0,1.038784122E1,1.067245441E1
5.099246930E-1,-1.185643673E0,2.143969059E0,1.038888836E1,1.067386320E1
5.124836510E-1,-1.229462147E0,2.123630047E0,1.039696407E1,1.068261408E1
5.150425050E-1,-1.274776220E0,2.101047754E0,1.040189934E1,1.068826300E1
5.176012030E-1,-1.326221943E0,2.076820612E0,1.040159988E1,1.068949618E1
5.201598490E-1,-1.369741440E0,2.059472561E0,1.041491032E1,1.070457733E1
5.227182860E-1,-1.405185103E0,2.042124510E0,1.043375397E1,1.072418013E1
5.252768280E-1,-1.428963780E0,2.022084713E0,1.045753193E1,1.074666172E1
5.278355780E-1,-1.447358608E0,2.000100613E0,1.048819065E1,1.077485000E1
5.303945880E-1,-1.456032634E0,1.976022840E0,1.052213860E1,1.080463317E1
5.329534430E-1,-1.461117268E0,1.950449586E0,1.056176949E1,1.083928466E1
5.355121930E-1,-1.470090389E0,1.916351795E0,1.059900761E1,1.087071903E1
5.380708380E-1,-1.466800332E0,1.892722726E0,1.064492035E1,1.091092259E1
5.406291720E-1,-1.459173203E0,1.869841337E0,1.069262695E1,1.095252319E1
5.431878700E-1,-1.445115328E0,1.849801421E0,1.074631596E1,1.099970137E1
5.457469840E-1,-1.430160165E0,1.834995866E0,1.079581738E1,1.104365160E1
5.483060990E-1,-1.407577872E0,1.824377656E0,1.084412289E1,1.108623608E1
5.508651610E-1,-1.382752419E0,1.822433591E0,1.089123154E1,1.112889001E1
5.534241720E-1,-1.363161206E0,1.821087599E0,1.092562866E1,1.115992519E1
5.559829740E-1,-1.337438345E0,1.828565121E0,1.095957661E1,1.119127835E1
5.585418800E-1,-1.314706445E0,1.835294962E0,1.098455143E1,1.121414869E1
5.611011510E-1,-1.290030479E0,1.836341858E0,1.099935722E1,1.122596051E1
5.636601090E-1,-1.263410330E0,1.847109556E0,1.100533867E1,1.123056092E1
5.662189630E-1,-1.235294700E0,1.858924150E0,1.100354481E1,1.122762443E1
5.687779740E-1,-1.205683470E0,1.869542241E0,1.098754215E1,1.121048364E1
5.713368800E-1,-1.184297681E0,1.871785522E0,1.095479107E1,1.117647482E1
5.738959430E-1,-1.154536963E0,1.880160451E0,1.091575813E1,1.113650459E1
5.764551610E-1,-1.123579741E0,1.889881253E0,1.086715317E1,1.108733965E1
5.790141720E-1,-1.096361399E0,1.893769622E0,1.081047344E1,1.102971930E1
5.815726610E-1,-1.072433233E0,1.902144432E0,1.074676514E1,1.096636801E1
5.841308900E-1,-1.053888798E0,1.907079697E0,1.067423248E1,1.089435054E1
5.866892240E-1,-1.037438154E0,1.916501403E0,1.059407234E1,1.081589683E1
5.892478180E-1,-1.029811025E0,1.922483444E0,1.050284672E1,1.072689342E1
5.918063590E-1,-1.016949654E0,1.933998942E0,1.041969585E1,1.064634210E1
5.943646400E-1,-1.005583763E0,1.949103594E0,9.833005905E0,1.007463194E1
5.969229740E-1,-9.955637455E-1,1.967049718E0,9.809824944E0,1.005450631E1
5.994815680E-1,-9.841978550E-1,1.987837434E0,9.770493507E0,1.001911605E1
6.020404740E-1,-9.765707254E-1,2.008475542E0,9.724281311E0,9.977440123E0
6.045995360E-1,-9.626624584E-1,2.026571274E0,9.674331665E0,9.931082685E0
6.071589630E-1,-9.501001239E-1,2.033301115E0,9.611819267E0,9.870363382E0
6.097182340E-1,-9.281160831E-1,2.045265198E0,9.558578491E0,9.818906862E0
6.122770880E-1,-9.014959335E-1,2.058425665E0,9.500103951E0,9.762263375E0
6.148358380E-1,-8.709874153E-1,2.067548275E0,9.439536095E0,9.702485075E0
6.173946400E-1,-8.344969153E-1,2.075773716E0,9.379565239E0,9.642689754E0
6.199535470E-1,-7.953144312E-1,2.085345030E0,9.327073097E0,9.590384846E0
6.225125570E-1,-7.537391186E-1,2.093869448E0,9.274131775E0,9.537396505E0
6.250717240E-1,-7.169494629E-1,2.099402666E0,9.213862419E0,9.477170926E0
6.276310470E-1,-6.714858413E-1,2.110320091E0,9.160024643E0,9.423926760E0
6.301902130E-1,-6.242275834E-1,2.127219439E0,9.113064766E0,9.378841722E0
6.327488590E-1,-5.780162215E-1,2.142174482E0,9.074630737E0,9.341945048E0
6.353075050E-1,-5.350949764E-1,2.157727718E0,9.038588524E0,9.307964227E0
6.378664630E-1,-4.998008311E-1,2.173879385E0,9.007183075E0,9.279272568E0
6.404254740E-1,-4.688436985E-1,2.190629244E0,8.977571487E0,9.252862298E0
6.429845880E-1,-4.534398913E-1,2.205434799E0,8.942276955E0,9.221380999E0
6.455435990E-1,-4.407280087E-1,2.229512453E0,8.917601585E0,9.202640110E0
6.481027130E-1,-4.320540428E-1,2.245813608E0,8.898608208E0,9.187795029E0
6.506615680E-1,-4.314558208E-1,2.257927179E0,8.879764557E0,9.172491911E0
6.532201610E-1,-4.402793646E-1,2.259123564E0,8.865707397E0,9.159598946E0
6.557790680E-1,-4.576273263E-1,2.260170460E0,8.853592873E0,9.148983552E0
6.583380780E-1,-4.797609448E-1,2.266003132E0,8.845517159E0,9.143747293E0
6.608970360E-1,-5.108676553E-1,2.266750813E0,8.831459999E0,9.132022269E0
6.634559950E-1,-5.340480804E-1,2.275873423E0,8.832655907E0,9.136772819E0
6.660146930E-1,-5.543870926E-1,2.286491632E0,8.838638306E0,9.146415480E0
6.685732860E-1,-5.768198371E-1,2.293520451E0,8.841629028E0,9.152451096E0
6.711320360E-1,-6.106184125E-1,2.295016050E0,8.846714020E0,9.159929174E0
6.736909430E-1,-6.568298340E-1,2.296361923E0,8.848957062E0,9.165628434E0
6.762498490E-1,-7.187440991E-1,2.297708035E0,8.848658562E0,9.170322439E0
6.788089630E-1,-7.989036441E-1,2.292025089E0,8.839086533E0,9.166301150E0
6.813682340E-1,-8.772686124E-1,2.298007011E0,8.839236259E0,9.175104037E0
6.839270880E-1,-9.575777054E-1,2.313111782E0,8.837292671E0,9.185052147E0
6.864854220E-1,-1.032503009E0,2.333450794E0,8.833254814E0,9.194424707E0
6.890439110E-1,-1.100399256E0,2.363510609E0,8.825029373E0,9.202076089E0
6.916027650E-1,-1.159621716E0,2.399402857E0,8.813214302E0,9.207312470E0
6.941617760E-1,-1.201795220E0,2.440529585E0,8.807681084E0,9.218228815E0
6.967209950E-1,-1.235892892E0,2.479263306E0,8.796015739E0,9.221934215E0
6.992802650E-1,-1.242772222E0,2.526521683E0,8.792127609E0,9.231971756E0
7.018394320E-1,-1.229611754E0,2.568096876E0,8.793622971E0,9.243098592E0
7.043985470E-1,-1.196261764E0,2.604437828E0,8.794969559E0,9.250169087E0
7.069574530E-1,-1.147956610E0,2.631656170E0,8.801100731E0,9.257580280E0
7.095166200E-1,-1.079162955E0,2.655584574E0,8.813812256E0,9.268225752E0
7.120760470E-1,-9.972088337E-1,2.676671267E0,8.834600449E0,9.284888778E0
7.146353700E-1,-9.133104682E-1,2.685943365E0,8.845966339E0,9.289755015E0
7.171946400E-1,-2.792125046E-1,2.695365191E0,8.862117767E0,9.267150827E0
7.197538070E-1,-2.451147735E-1,2.703889608E0,8.878718376E0,9.284543084E0
7.223128700E-1,-2.104188353E-1,2.708974361E0,8.893523216E0,9.299331878E0
7.248718800E-1,-1.775175333E-1,2.718246460E0,8.908926964E0,9.316080503E0
7.274309430E-1,-1.486541033E-1,2.733799934E0,8.922387123E0,9.332992666E0
7.299898490E-1,-1.232303679E-1,2.752344131E0,8.936893463E0,9.351932886E0
7.325487550E-1,-1.150050387E-1,2.766402006E0,8.944969177E0,9.363689433E0
